% Freq.	V(n003)/I(L1)
1.00000000000000e+000	1.13184662445118e-003,4.37280264325677e-002
1.00695555005672e+000	1.13368859006875e-003,4.40322575369808e-002
1.01395947979003e+000	1.13555628247102e-003,4.43386063884711e-002
1.02101212570719e+000	1.13745006118197e-003,4.46470877518641e-002
1.02811382665607e+000	1.13937029075420e-003,4.49577164954130e-002
1.03526492384138e+000	1.14131734084203e-003,4.52705075915333e-002
1.04246576084112e+000	1.14329158627001e-003,4.55854761175432e-002
1.04971668362307e+000	1.14529340710848e-003,4.59026372564090e-002
1.05701804056138e+000	1.14732318874458e-003,4.62220062974958e-002
1.06437018245336e+000	1.14938132195836e-003,4.65435986373259e-002
1.07177346253629e+000	1.15146820299777e-003,4.68674297803386e-002
1.07922823650443e+000	1.15358423365616e-003,4.71935153396608e-002
1.08673486252606e+000	1.15572982134842e-003,4.75218710378792e-002
1.09429370126074e+000	1.15790537919148e-003,4.78525127078205e-002
1.10190511587661e+000	1.16011132608352e-003,4.81854562933361e-002
1.10956947206785e+000	1.16234808678502e-003,4.85207178500939e-002
1.11728713807222e+000	1.16461609200197e-003,4.88583135463742e-002
1.12505848468881e+000	1.16691577846754e-003,4.91982596638743e-002
1.13288388529580e+000	1.16924758902897e-003,4.95405725985162e-002
1.14076371586843e+000	1.17161197273066e-003,4.98852688612624e-002
1.14869835499704e+000	1.17400938490343e-003,5.02323650789370e-002
1.15668818390529e+000	1.17644028725196e-003,5.05818779950522e-002
1.16473358646846e+000	1.17890514794380e-003,5.09338244706432e-002
1.17283494923188e+000	1.18140444170064e-003,5.12882214851062e-002
1.18099266142953e+000	1.18393864989066e-003,5.16450861370457e-002
1.18920711500272e+000	1.18650826062019e-003,5.20044356451279e-002
1.19747870461893e+000	1.18911376883134e-003,5.23662873489359e-002
1.20580782769076e+000	1.19175567639402e-003,5.27306587098400e-002
1.21419488439505e+000	1.19443449220750e-003,5.30975673118653e-002
1.22264027769207e+000	1.19715073229518e-003,5.34670308625733e-002
1.23114441334492e+000	1.19990491990818e-003,5.38390671939437e-002
1.23970769993899e+000	1.20269758562351e-003,5.42136942632703e-002
1.24833054890161e+000	1.20552926745016e-003,5.45909301540551e-002
1.25701337452183e+000	1.20840051093104e-003,5.49707930769182e-002
1.26575659397028e+000	1.21131186925044e-003,5.53533013705055e-002
1.27456062731927e+000	1.21426390334059e-003,5.57384735024119e-002
1.28342589756291e+000	1.21725718199079e-003,5.61263280701040e-002
1.29235283063750e+000	1.22029228195789e-003,5.65168838018566e-002
1.30134185544194e+000	1.22336978807715e-003,5.69101595576915e-002
1.31039340385837e+000	1.22649029337887e-003,5.73061743303236e-002
1.31950791077290e+000	1.22965439920030e-003,5.77049472461180e-002
1.32868581409652e+000	1.23286271530399e-003,5.81064975660513e-002
1.33792755478612e+000	1.23611585999556e-003,5.85108446866813e-002
1.34723357686569e+000	1.23941446024631e-003,5.89180081411221e-002
1.35660432744768e+000	1.24275915181003e-003,5.93280076000321e-002
1.36604025675440e+000	1.24615057935154e-003,5.97408628726030e-002
1.37554181813975e+000	1.24958939656979e-003,6.01565939075605e-002
1.38510946811093e+000	1.25307626632580e-003,6.05752207941704e-002
1.39474366635041e+000	1.25661186077050e-003,6.09967637632560e-002
1.40444487573800e+000	1.26019686147554e-003,6.14212431882209e-002
1.41421356237310e+000	1.26383195956681e-003,6.18486795860779e-002
1.42405019559708e+000	1.26751785585893e-003,6.22790936184885e-002
1.43395524801583e+000	1.27125526099063e-003,6.27125060928109e-002
1.44392919552250e+000	1.27504489556436e-003,6.31489379631553e-002
1.45397251732032e+000	1.27888749028504e-003,6.35884103314450e-002
1.46408569594563e+000	1.28278378610304e-003,6.40309444484921e-002
1.47426921729111e+000	1.28673453435971e-003,6.44765617150721e-002
1.48452357062906e+000	1.29074049693188e-003,6.49252836830169e-002
1.49484924863494e+000	1.29480244638001e-003,6.53771320563104e-002
1.50524674741107e+000	1.29892116610141e-003,6.58321286921931e-002
1.51571656651041e+000	1.30309745048036e-003,6.62902956022774e-002
1.52625920896057e+000	1.30733210504421e-003,6.67516549536702e-002
1.53687518128802e+000	1.31162594661973e-003,6.72162290701041e-002
1.54756499354240e+000	1.31597980349301e-003,6.76840404330811e-002
1.55832915932101e+000	1.32039451557029e-003,6.81551116830187e-002
1.56916819579351e+000	1.32487093454241e-003,6.86294656204109e-002
1.58008262372676e+000	1.32940992405112e-003,6.91071252069975e-002
1.59107296750985e+000	1.33401235985761e-003,6.95881135669367e-002
1.60213975517925e+000	1.33867913001205e-003,7.00724539879986e-002
1.61328351844426e+000	1.34341113502866e-003,7.05601699227569e-002
1.62450479271248e+000	1.34820928806250e-003,7.10512849897940e-002
1.63580411711557e+000	1.35307451508386e-003,7.15458229749208e-002
1.64718203453516e+000	1.35800775506367e-003,7.20438078323987e-002
1.65863909162889e+000	1.36300996015444e-003,7.25452636861732e-002
1.67017583885675e+000	1.36808209587659e-003,7.30502148311245e-002
1.68179283050744e+000	1.37322514130844e-003,7.35586857343157e-002
1.69349062472506e+000	1.37844008927599e-003,7.40707010362611e-002
1.70526978353592e+000	1.38372794654895e-003,7.45862855522029e-002
1.71713087287552e+000	1.38908973403575e-003,7.51054642733946e-002
1.72907446261574e+000	1.39452648698528e-003,7.56282623683967e-002
1.74110112659226e+000	1.40003925518813e-003,7.61547051843853e-002
1.75321144263208e+000	1.40562910318251e-003,7.66848182484682e-002
1.76540599258132e+000	1.41129711046346e-003,7.72186272690123e-002
1.77768536233315e+000	1.41704437169382e-003,7.77561581369815e-002
1.79005014185596e+000	1.42287199691753e-003,7.82974369272913e-002
1.80250092522167e+000	1.42878111177978e-003,7.88424899001628e-002
1.81503831063433e+000	1.43477285774579e-003,7.93913435024990e-002
1.82766290045881e+000	1.44084839232444e-003,7.99440243692679e-002
1.84037530124976e+000	1.44700888929668e-003,8.05005593248969e-002
1.85317612378076e+000	1.45325553894630e-003,8.10609753846750e-002
1.86606598307363e+000	1.45958954829065e-003,8.16252997561785e-002
1.87904549842804e+000	1.46601214132075e-003,8.21935598406931e-002
1.89211529345121e+000	1.47252455924005e-003,8.27657832346597e-002
1.90527599608789e+000	1.47912806070900e-003,8.33419977311273e-002
1.91852823865054e+000	1.48582392209199e-003,8.39222313212169e-002
1.93187265784971e+000	1.49261343770731e-003,8.45065121956030e-002
1.94530989482459e+000	1.49949792008453e-003,8.50948687459986e-002
1.95884059517387e+000	1.50647870021910e-003,8.56873295666640e-002
1.97246540898673e+000	1.51355712783843e-003,8.62839234559164e-002
1.98618499087409e+000	1.52073457166157e-003,8.68846794176646e-002
2.00000000000002e+000	1.52801241967542e-003,8.74896266629441e-002
2.01391110011345e+000	1.53539207940397e-003,8.80987946114752e-002
2.02791895958007e+000	1.54287497818601e-003,8.87122128932304e-002
2.04202425141440e+000	1.55046256345780e-003,8.93299113500131e-002
2.05622765331215e+000	1.55815630303721e-003,8.99519200370538e-002
2.07052984768277e+000	1.56595768541438e-003,9.05782692246152e-002
2.08493152168226e+000	1.57386822004362e-003,9.12089893996233e-002
2.09943336724615e+000	1.58188943764437e-003,9.18441112672868e-002
2.11403608112278e+000	1.59002289049968e-003,9.24836657527633e-002
2.12874036490674e+000	1.59827015276545e-003,9.31276840028135e-002
2.14354692507260e+000	1.60663282078056e-003,9.37761973874846e-002
2.15845647300887e+000	1.61511251338285e-003,9.44292375017985e-002
2.17346972505214e+000	1.62371087222857e-003,9.50868361674659e-002
2.18858740252150e+000	1.63242956211824e-003,9.57490254346028e-002
2.20381023175324e+000	1.64127027132509e-003,9.64158375834732e-002
2.21913894413571e+000	1.65023471192868e-003,9.70873051262401e-002
2.23457427614446e+000	1.65932462015662e-003,9.77634608087320e-002
2.25011696937764e+000	1.66854175672524e-003,9.84443376122308e-002
2.26576777059162e+000	1.67788790719224e-003,9.91299687552692e-002
2.28152743173687e+000	1.68736488230717e-003,9.98203876954466e-002
2.29739670999409e+000	1.69697451837294e-003,1.00515628131262e-001
2.31337636781060e+000	1.70671867761083e-003,1.01215724003958e-001
2.32946717293693e+000	1.71659924852659e-003,1.01920709499397e-001
2.34566989846378e+000	1.72661814629157e-003,1.02630619049925e-001
2.36198532285908e+000	1.73677731311665e-003,1.03345487336285e-001
2.37841423000546e+000	1.74707871864484e-003,1.04065349289526e-001
2.39495740923788e+000	1.75752436033722e-003,1.04790240092936e-001
2.41161565538154e+000	1.76811626387668e-003,1.05520195183990e-001
2.42838976879012e+000	1.77885648356456e-003,1.06255250256326e-001
2.44528055538416e+000	1.78974710273483e-003,1.06995441261720e-001
2.46228882668986e+000	1.80079023416920e-003,1.07740804412098e-001
2.47941539987800e+000	1.81198802051415e-003,1.08491376181554e-001
2.49666109780325e+000	1.82334263471411e-003,1.09247193308392e-001
2.51402674904368e+000	1.83485628044073e-003,1.10008292797188e-001
2.53151318794059e+000	1.84653119253535e-003,1.10774711920863e-001
2.54912125463855e+000	1.85836963745558e-003,1.11546488222786e-001
2.56685179512583e+000	1.87037391372698e-003,1.12323659518891e-001
2.58470566127501e+000	1.88254635240450e-003,1.13106263899810e-001
2.60268371088389e+000	1.89488931753745e-003,1.13894339733037e-001
2.62078680771675e+000	1.90740520664495e-003,1.14687925665095e-001
2.63901582154582e+000	1.92009645119417e-003,1.15487060623747e-001
2.65737162819305e+000	1.93296551709041e-003,1.16291783820201e-001
2.67585510957225e+000	1.94601490516838e-003,1.17102134751361e-001
2.69446715373141e+000	1.95924715169775e-003,1.17918153202082e-001
2.71320865489537e+000	1.97266482888904e-003,1.18739879247450e-001
2.73208051350882e+000	1.98627054541398e-003,1.19567353255091e-001
2.75108363627952e+000	2.00006694692831e-003,1.20400615887498e-001
2.77021893622188e+000	2.01405671660355e-003,1.21239708104372e-001
2.78948733270084e+000	2.02824257566901e-003,1.22084671165001e-001
2.80888975147603e+000	2.04262728395760e-003,1.22935546630653e-001
2.82842712474622e+000	2.05721364046474e-003,1.23792376366985e-001
2.84810039119418e+000	2.07200448391114e-003,1.24655202546497e-001
2.86791049603169e+000	2.08700269331715e-003,1.25524067650986e-001
2.88785839104502e+000	2.10221118858401e-003,1.26399014474043e-001
2.90794503464065e+000	2.11763293108252e-003,1.27280086123556e-001
2.92817139189128e+000	2.13327092425303e-003,1.28167326024261e-001
2.94853843458224e+000	2.14912821421583e-003,1.29060777920294e-001
2.96904714125813e+000	2.16520789038384e-003,1.29960485877785e-001
2.98969849726991e+000	2.18151308609130e-003,1.30866494287477e-001
3.01049349482217e+000	2.19804697923031e-003,1.31778847867353e-001
3.03143313302083e+000	2.21481279289171e-003,1.32697591665321e-001
3.05251841792115e+000	2.23181379602549e-003,1.33622771061891e-001
3.07375036257606e+000	2.24905330410030e-003,1.34554431772907e-001
3.09512998708482e+000	2.26653467978220e-003,1.35492619852296e-001
3.11665831864204e+000	2.28426133361579e-003,1.36437381694838e-001
3.13833639158704e+000	2.30223672472104e-003,1.37388764038975e-001
3.16016524745355e+000	2.32046436149867e-003,1.38346813969645e-001
3.18214593501971e+000	2.33894780234469e-003,1.39311578921149e-001
3.20427951035853e+000	2.35769065638001e-003,1.40283106680034e-001
3.22656703688855e+000	2.37669658418467e-003,1.41261445388022e-001
3.24900958542498e+000	2.39596929855128e-003,1.42246643544964e-001
3.27160823423117e+000	2.41551256524003e-003,1.43238750011821e-001
3.29436406907033e+000	2.43533020375334e-003,1.44237814013679e-001
3.31727818325781e+000	2.45542608811986e-003,1.45243885142799e-001
3.34035167771352e+000	2.47580414769027e-003,1.46257013361686e-001
3.36358566101490e+000	2.49646836794001e-003,1.47277249006216e-001
3.38698124945015e+000	2.51742279129517e-003,1.48304642788768e-001
3.41053956707187e+000	2.53867151795968e-003,1.49339245801407e-001
3.43426174575106e+000	2.56021870676431e-003,1.50381109519091e-001
3.45814892523151e+000	2.58206857601958e-003,1.51430285802930e-001
3.48220225318454e+000	2.60422540439174e-003,1.52486826903448e-001
3.50642288526419e+000	2.62669353178319e-003,1.53550785463922e-001
3.53081198516267e+000	2.64947736023032e-003,1.54622214523716e-001
3.55537072466633e+000	2.67258135481832e-003,1.55701167521682e-001
3.58010028371194e+000	2.69601004460123e-003,1.56787698299581e-001
3.60500185044337e+000	2.71976802354438e-003,1.57881861105553e-001
3.63007662126869e+000	2.74385995148111e-003,1.58983710597618e-001
3.65532580091765e+000	2.76829055507467e-003,1.60093301847210e-001
3.68075060249955e+000	2.79306462880927e-003,1.61210690342765e-001
3.70635224756154e+000	2.81818703598211e-003,1.62335931993346e-001
3.73213196614728e+000	2.84366270972173e-003,1.63469083132297e-001
3.75809099685610e+000	2.86949665401821e-003,1.64610200520940e-001
3.78423058690244e+000	2.89569394476536e-003,1.65759341352336e-001
3.81055199217580e+000	2.92225973082611e-003,1.66916563255056e-001
3.83705647730111e+000	2.94919923511011e-003,1.68081924297022e-001
3.86374531569944e+000	2.97651775566744e-003,1.69255482989372e-001
3.89061978964920e+000	3.00422066680384e-003,1.70437298290382e-001
3.91768119034776e+000	3.03231342020765e-003,1.71627429609435e-001
3.94493081797349e+000	3.06080154609840e-003,1.72825936811014e-001
3.97236998174820e+000	3.08969065439203e-003,1.74032880218775e-001
4.00000000000006e+000	3.11898643588381e-003,1.75248320619641e-001
4.02782220022694e+000	3.14869466345050e-003,1.76472319267952e-001
4.05583791916018e+000	3.17882119327158e-003,1.77704937889668e-001
4.08404850282883e+000	3.20937196606915e-003,1.78946238686617e-001
4.11245530662433e+000	3.24035300836755e-003,1.80196284340786e-001
4.14105969536557e+000	3.27177043377110e-003,1.81455138018694e-001
4.16986304336455e+000	3.30363044426723e-003,1.82722863375768e-001
4.19886673449233e+000	3.33593933154261e-003,1.83999524560815e-001
4.22807216224559e+000	3.36870347832828e-003,1.85285186220520e-001
4.25748072981351e+000	3.40192935975690e-003,1.86579913504025e-001
4.28709385014524e+000	3.43562354475233e-003,1.87883772067523e-001
4.31691294601778e+000	3.46979269743130e-003,1.89196828078959e-001
4.34693945010430e+000	3.50444357853323e-003,1.90519148222747e-001
4.37717480504303e+000	3.53958304687196e-003,1.91850799704558e-001
4.40762046350651e+000	3.57521806080818e-003,1.93191850256185e-001
4.43827788827145e+000	3.61135567975139e-003,1.94542368140429e-001
4.46914855228895e+000	3.64800306567450e-003,1.95902422156089e-001
4.50023393875531e+000	3.68516748466878e-003,1.97272081642984e-001
4.53153554118327e+000	3.72285630850889e-003,1.98651416487056e-001
4.56305486347377e+000	3.76107701625198e-003,2.00040497125517e-001
4.59479341998822e+000	3.79983719585898e-003,2.01439394552085e-001
4.62675273562123e+000	3.83914454584475e-003,2.02848180322272e-001
4.65893434587390e+000	3.87900687695025e-003,2.04266926558739e-001
4.69133979692760e+000	3.91943211384826e-003,2.05695705956725e-001
4.72397064571820e+000	3.96042829687192e-003,2.07134591789544e-001
4.75682846001097e+000	4.00200358377125e-003,2.08583657914154e-001
4.78991481847580e+000	4.04416625150350e-003,2.10042978776787e-001
4.82323131076313e+000	4.08692469804693e-003,2.11512629418675e-001
4.85677953758027e+000	4.13028744424689e-003,2.12992685481827e-001
4.89056111076836e+000	4.17426313569057e-003,2.14483223214906e-001
4.92457765337975e+000	4.21886054461827e-003,2.15984319479144e-001
4.95883079975604e+000	4.26408857185599e-003,2.17496051754389e-001
4.99332219560654e+000	4.30995624878932e-003,2.19018498145183e-001
5.02805349808741e+000	4.35647273936502e-003,2.20551737386957e-001
5.06302637588121e+000	4.40364734212692e-003,2.22095848852285e-001
5.09824250927714e+000	4.45148949228492e-003,2.23650912557230e-001
5.13370359025171e+000	4.50000876382102e-003,2.25217009167783e-001
5.16941132255006e+000	4.54921487162650e-003,2.26794220006373e-001
5.20536742176783e+000	4.59911767367581e-003,2.28382627058490e-001
5.24157361543355e+000	4.64972717324150e-003,2.29982312979365e-001
5.27803164309168e+000	4.70105352113722e-003,2.31593361100779e-001
5.31474325638615e+000	4.75310701800856e-003,2.33215855437929e-001
5.35171021914455e+000	4.80589811665403e-003,2.34849880696420e-001
5.38893430746286e+000	4.85943742438889e-003,2.36495522279336e-001
5.42641730979079e+000	4.91373570544941e-003,2.38152866294422e-001
5.46416102701769e+000	4.96880388343684e-003,2.39821999561337e-001
5.50216727255908e+000	5.02465304380181e-003,2.41503009619062e-001
5.54043787244381e+000	5.08129443637448e-003,2.43195984733354e-001
5.57897466540173e+000	5.13873947793267e-003,2.44901013904349e-001
5.61777950295210e+000	5.19699975481552e-003,2.46618186874262e-001
5.65685424949249e+000	5.25608702559039e-003,2.48347594135158e-001
5.69620078238840e+000	5.31601322374595e-003,2.50089326936921e-001
5.73582099206342e+000	5.37679046045350e-003,2.51843477295247e-001
5.77571678209010e+000	5.43843102736246e-003,2.53610137999798e-001
5.81589006928136e+000	5.50094739944642e-003,2.55389402622475e-001
5.85634278378262e+000	5.56435223790122e-003,2.57181365525799e-001
5.89707686916452e+000	5.62865839309045e-003,2.58986121871418e-001
5.93809428251631e+000	5.69387890754352e-003,2.60803767628752e-001
5.97939699453987e+000	5.76002701900758e-003,2.62634399583734e-001
6.02098698964439e+000	5.82711616354777e-003,2.64478115347713e-001
6.06286626604171e+000	5.89515997870723e-003,2.66335013366480e-001
6.10503683584236e+000	5.96417230671877e-003,2.68205192929415e-001
6.14750072515217e+000	6.03416719777638e-003,2.70088754178791e-001
6.19025997416968e+000	6.10515891336010e-003,2.71985798119192e-001
6.23331663728413e+000	6.17716192962431e-003,2.73896426627118e-001
6.27667278317413e+000	6.25019094084068e-003,2.75820742460683e-001
6.32033049490715e+000	6.32426086291177e-003,2.77758849269486e-001
6.36429187003948e+000	6.39938683692979e-003,2.79710851604655e-001
6.40855902071711e+000	6.47558423282423e-003,2.81676854928992e-001
6.45313407377714e+000	6.55286865304688e-003,2.83656965627329e-001
6.49801917085002e+000	6.63125593634648e-003,2.85651291016999e-001
6.54321646846239e+000	6.71076216159570e-003,2.87659939358505e-001
6.58872813814072e+000	6.79140365169678e-003,2.89683019866335e-001
6.63455636651567e+000	6.87319697754834e-003,2.91720642719950e-001
6.68070335542710e+000	6.95615896209682e-003,2.93772919074952e-001
6.72717132202986e+000	7.04030668444865e-003,2.95839961074408e-001
6.77396249890036e+000	7.12565748406467e-003,2.97921881860393e-001
6.82107913414380e+000	7.21222896503226e-003,3.00018795585665e-001
6.86852349150218e+000	7.30003900040912e-003,3.02130817425558e-001
6.91629785046307e+000	7.38910573665412e-003,3.04258063590084e-001
6.96440450636914e+000	7.47944759813476e-003,3.06400651336165e-001
7.01284577052843e+000	7.57108329171987e-003,3.08558698980134e-001
7.06162397032539e+000	7.66403181145932e-003,3.10732325910389e-001
7.11074144933272e+000	7.75831244334574e-003,3.12921652600288e-001
7.16020056742394e+000	7.85394477016963e-003,3.15126800621225e-001
7.21000370088680e+000	7.95094867646318e-003,3.17347892655922e-001
7.26015324253745e+000	8.04934435353862e-003,3.19585052511972e-001
7.31065160183536e+000	8.14915230461609e-003,3.21838405135579e-001
7.36150120499916e+000	8.25039335005428e-003,3.24108076625517e-001
7.41270449512313e+000	8.35308863267518e-003,3.26394194247349e-001
7.46426393229462e+000	8.45725962319767e-003,3.28696886447855e-001
7.51618199371226e+000	8.56292812576069e-003,3.31016282869728e-001
7.56846117380494e+000	8.67011628356529e-003,3.33352514366496e-001
7.62110398435167e+000	8.77884658461809e-003,3.35705713017711e-001
7.67411295460229e+000	8.88914186758383e-003,3.38076012144379e-001
7.72749063139894e+000	9.00102532775515e-003,3.40463546324675e-001
7.78123957929846e+000	9.11452052313298e-003,3.42868451409905e-001
7.83536238069559e+000	9.22965138062818e-003,3.45290864540746e-001
7.88986163594705e+000	9.34644220237995e-003,3.47730924163783e-001
7.94473996349647e+000	9.46491767220422e-003,3.50188770048293e-001
8.00000000000018e+000	9.58510286215422e-003,3.52664543303379e-001
8.05564440045393e+000	9.70702323922983e-003,3.55158386395326e-001
