% Freq.	V(n004)/I(L1)
1.00000000000000e+000	4.01213184662446e+000,4.47961679347900e-002
1.00695555005672e+000	4.01213368859006e+000,4.51078285508779e-002
1.01395947979003e+000	4.01213555628247e+000,4.54216585904044e-002
1.02101212570719e+000	4.01213745006118e+000,4.57376731776045e-002
1.02811382665607e+000	4.01213937029076e+000,4.60558875426739e-002
1.03526492384138e+000	4.01214131734085e+000,4.63763170224834e-002
1.04246576084112e+000	4.01214329158627e+000,4.66989770613328e-002
1.04971668362307e+000	4.01214529340711e+000,4.70238832117628e-002
1.05701804056138e+000	4.01214732318874e+000,4.73510511352120e-002
1.06437018245336e+000	4.01214938132196e+000,4.76804966029349e-002
1.07177346253629e+000	4.01215146820299e+000,4.80122354966512e-002
1.07922823650443e+000	4.01215358423365e+000,4.83462838094341e-002
1.08673486252606e+000	4.01215572982135e+000,4.86826576464552e-002
1.09429370126074e+000	4.01215790537920e+000,4.90213732257618e-002
1.10190511587661e+000	4.01216011132610e+000,4.93624468791230e-002
1.10956947206785e+000	4.01216234808679e+000,4.97058950528023e-002
1.11728713807222e+000	4.01216461609200e+000,5.00517343084381e-002
1.12505848468881e+000	4.01216691577846e+000,5.03999813238008e-002
1.13288388529580e+000	4.01216924758904e+000,5.07506528935993e-002
1.14076371586843e+000	4.01217161197272e+000,5.11037659304134e-002
1.14869835499704e+000	4.01217400938492e+000,5.14593374654500e-002
1.15668818390529e+000	4.01217644028724e+000,5.18173846494053e-002
1.16473358646846e+000	4.01217890514795e+000,5.21779247533909e-002
1.17283494923188e+000	4.01218140444170e+000,5.25409751696357e-002
1.18099266142953e+000	4.01218393864990e+000,5.29065534125490e-002
1.18920711500272e+000	4.01218650826061e+000,5.32746771193926e-002
1.19747870461893e+000	4.01218911376883e+000,5.36453640513748e-002
1.20580782769076e+000	4.01219175567639e+000,5.40186320942932e-002
1.21419488439505e+000	4.01219443449222e+000,5.43944992596707e-002
1.22264027769207e+000	4.01219715073229e+000,5.47729836854567e-002
1.23114441334492e+000	4.01219990491991e+000,5.51541036370669e-002
1.23970769993899e+000	4.01220269758561e+000,5.55378775081861e-002
1.24833054890161e+000	4.01220552926746e+000,5.59243238218317e-002
1.25701337452183e+000	4.01220840051094e+000,5.63134612310955e-002
1.26575659397028e+000	4.01221131186925e+000,5.67053085202282e-002
1.27456062731927e+000	4.01221426390333e+000,5.70998846055462e-002
1.28342589756291e+000	4.01221725718200e+000,5.74972085363178e-002
1.29235283063750e+000	4.01222029228196e+000,5.78972994957755e-002
1.30134185544194e+000	4.01222336978809e+000,5.83001768020738e-002
1.31039340385837e+000	4.01222649029339e+000,5.87058599092236e-002
1.31950791077290e+000	4.01222965439920e+000,5.91143684081327e-002
1.32868581409652e+000	4.01223286271532e+000,5.95257220274990e-002
1.33792755478612e+000	4.01223611586000e+000,5.99399406349247e-002
1.34723357686569e+000	4.01223941446025e+000,6.03570442377582e-002
1.35660432744768e+000	4.01224275915182e+000,6.07770529842692e-002
1.36604025675440e+000	4.01224615057936e+000,6.11999871645571e-002
1.37554181813975e+000	4.01224958939657e+000,6.16258672115585e-002
1.38510946811093e+000	4.01225307626632e+000,6.20547137021755e-002
1.39474366635041e+000	4.01225661186079e+000,6.24865473582426e-002
1.40444487573800e+000	4.01226019686147e+000,6.29213890475754e-002
1.41421356237310e+000	4.01226383195957e+000,6.33592597850611e-002
1.42405019559708e+000	4.01226751785586e+000,6.38001807336517e-002
1.43395524801583e+000	4.01227125526099e+000,6.42441732055424e-002
1.44392919552250e+000	4.01227504489558e+000,6.46912586631774e-002
1.45397251732032e+000	4.01227888749029e+000,6.51414587202874e-002
1.46408569594563e+000	4.01228278378610e+000,6.55947951431449e-002
1.47426921729111e+000	4.01228673453435e+000,6.60512898515094e-002
1.48452357062906e+000	4.01229074049694e+000,6.65109649198286e-002
1.49484924863494e+000	4.01229480244637e+000,6.69738425783460e-002
1.50524674741107e+000	4.01229892116611e+000,6.74399452141932e-002
1.51571656651041e+000	4.01230309745047e+000,6.79092953725616e-002
1.52625920896057e+000	4.01230733210504e+000,6.83819157579013e-002
1.53687518128802e+000	4.01231162594664e+000,6.88578292349850e-002
1.54756499354240e+000	4.01231597980350e+000,6.93370588300837e-002
1.55832915932101e+000	4.01232039451557e+000,6.98196277322172e-002
1.56916819579351e+000	4.01232487093453e+000,7.03055592943000e-002
1.58008262372676e+000	4.01232940992404e+000,7.07948770343160e-002
1.59107296750985e+000	4.01233401235987e+000,7.12876046365951e-002
1.60213975517925e+000	4.01233867913001e+000,7.17837659528675e-002
1.61328351844426e+000	4.01234341113502e+000,7.22833850036536e-002
1.62450479271248e+000	4.01234820928809e+000,7.27864859794605e-002
1.63580411711557e+000	4.01235307451510e+000,7.32930932419310e-002
1.64718203453516e+000	4.01235800775505e+000,7.38032313251874e-002
1.65863909162889e+000	4.01236300996016e+000,7.43169249371432e-002
1.67017583885675e+000	4.01236808209588e+000,7.48341989606112e-002
1.68179283050744e+000	4.01237322514129e+000,7.53550784547101e-002
1.69349062472506e+000	4.01237844008926e+000,7.58795886561446e-002
1.70526978353592e+000	4.01238372794656e+000,7.64077549804812e-002
1.71713087287552e+000	4.01238908973403e+000,7.69396030234563e-002
1.72907446261574e+000	4.01239452648700e+000,7.74751585623526e-002
1.74110112659226e+000	4.01240003925521e+000,7.80144475572627e-002
1.75321144263208e+000	4.01240562910320e+000,7.85574961525193e-002
1.76540599258132e+000	4.01241129711048e+000,7.91043306779609e-002
1.77768536233315e+000	4.01241704437170e+000,7.96549776503816e-002
1.79005014185596e+000	4.01242287199691e+000,8.02094637748636e-002
1.80250092522167e+000	4.01242878111178e+000,8.07678159461799e-002
1.81503831063433e+000	4.01243477285775e+000,8.13300612502014e-002
1.82766290045881e+000	4.01244084839232e+000,8.18962269653185e-002
1.84037530124976e+000	4.01244700888929e+000,8.24663405638115e-002
1.85317612378076e+000	4.01245325553895e+000,8.30404297134037e-002
1.86606598307363e+000	4.01245958954829e+000,8.36185222785780e-002
1.87904549842804e+000	4.01246601214132e+000,8.42006463221204e-002
1.89211529345121e+000	4.01247252455923e+000,8.47868301065901e-002
1.90527599608789e+000	4.01247912806072e+000,8.53771020957381e-002
1.91852823865054e+000	4.01248582392209e+000,8.59714909561046e-002
1.93187265784971e+000	4.01249261343770e+000,8.65700255584543e-002
1.94530989482459e+000	4.01249949792009e+000,8.71727349793396e-002
1.95884059517387e+000	4.01250647870022e+000,8.77796485026101e-002
1.97246540898673e+000	4.01251355712785e+000,8.83907956209507e-002
1.98618499087409e+000	4.01252073457167e+000,8.90062060375077e-002
2.00000000000002e+000	4.01252801241967e+000,8.96259096673896e-002
2.01391110011345e+000	4.01253539207939e+000,9.02499366392805e-002
2.02791895958007e+000	4.01254287497818e+000,9.08783172970939e-002
2.04202425141440e+000	4.01255046256347e+000,9.15110822014919e-002
2.05622765331215e+000	4.01255815630302e+000,9.21482621315625e-002
2.07052984768277e+000	4.01256595768541e+000,9.27898880865041e-002
2.08493152168226e+000	4.01257386822003e+000,9.34359912872160e-002
2.09943336724615e+000	4.01258188943763e+000,9.40866031779835e-002
2.11403608112278e+000	4.01259002289052e+000,9.47417554282090e-002
2.12874036490674e+000	4.01259827015277e+000,9.54014799340190e-002
2.14354692507260e+000	4.01260663282079e+000,9.60658088201185e-002
2.15845647300887e+000	4.01261511251339e+000,9.67347744413587e-002
2.17346972505214e+000	4.01262371087223e+000,9.74084093845978e-002
2.18858740252150e+000	4.01263242956212e+000,9.80867464704782e-002
2.20381023175324e+000	4.01264127027134e+000,9.87698187550319e-002
2.21913894413571e+000	4.01265023471192e+000,9.94576595316545e-002
2.23457427614446e+000	4.01265932462016e+000,1.00150302332875e-001
2.25011696937764e+000	4.01266854175672e+000,1.00847780932085e-001
2.26576777059162e+000	4.01267788790716e+000,1.01550129345423e-001
2.28152743173687e+000	4.01268736488229e+000,1.02257381833738e-001
2.29739670999409e+000	4.01269697451836e+000,1.02969572904264e-001
2.31337636781060e+000	4.01270671867760e+000,1.03686737312664e-001
2.32946717293693e+000	4.01271659924853e+000,1.04408910064872e-001
2.34566989846378e+000	4.01272661814629e+000,1.05136126418983e-001
2.36198532285908e+000	4.01273677731312e+000,1.05868421887270e-001
2.37841423000546e+000	4.01274707871865e+000,1.06605832238069e-001
2.39495740923788e+000	4.01275752436033e+000,1.07348393497799e-001
2.41161565538154e+000	4.01276811626388e+000,1.08096141952915e-001
2.42838976879012e+000	4.01277885648358e+000,1.08849114151947e-001
2.44528055538416e+000	4.01278974710273e+000,1.09607346907506e-001
2.46228882668986e+000	4.01280079023415e+000,1.10370877298332e-001
2.47941539987800e+000	4.01281198802055e+000,1.11139742671417e-001
2.49666109780325e+000	4.01282334263470e+000,1.11913980643939e-001
2.51402674904368e+000	4.01283485628045e+000,1.12693629105541e-001
2.53151318794059e+000	4.01284653119252e+000,1.13478726220320e-001
2.54912125463855e+000	4.01285836963745e+000,1.14269310429057e-001
2.56685179512583e+000	4.01287037391371e+000,1.15065420451318e-001
2.58470566127501e+000	4.01288254635240e+000,1.15867095287641e-001
2.60268371088389e+000	4.01289488931754e+000,1.16674374221782e-001
2.62078680771675e+000	4.01290740520664e+000,1.17487296822887e-001
2.63901582154582e+000	4.01292009645120e+000,1.18305902947758e-001
2.65737162819305e+000	4.01293296551708e+000,1.19130232743096e-001
2.67585510957225e+000	4.01294601490517e+000,1.19960326647825e-001
2.69446715373141e+000	4.01295924715170e+000,1.20796225395348e-001
2.71320865489537e+000	4.01297266482887e+000,1.21637970015921e-001
2.73208051350882e+000	4.01298627054543e+000,1.22485601838986e-001
2.75108363627952e+000	4.01300006694695e+000,1.23339162495492e-001
2.77021893622188e+000	4.01301405671658e+000,1.24198693920379e-001
2.78948733270084e+000	4.01302824257565e+000,1.25064238354978e-001
2.80888975147603e+000	4.01304262728396e+000,1.25935838349363e-001
2.82842712474622e+000	4.01305721364049e+000,1.26813536764941e-001
2.84810039119418e+000	4.01307200448391e+000,1.27697376776820e-001
2.86791049603169e+000	4.01308700269332e+000,1.28587401876450e-001
2.88785839104502e+000	4.01310221118858e+000,1.29483655874056e-001
2.90794503464065e+000	4.01311763293110e+000,1.30386182901232e-001
2.92817139189128e+000	4.01313327092425e+000,1.31295027413557e-001
2.94853843458224e+000	4.01314912821420e+000,1.32210234193161e-001
2.96904714125813e+000	4.01316520789041e+000,1.33131848351425e-001
2.98969849726991e+000	4.01318151308611e+000,1.34059915331547e-001
3.01049349482217e+000	4.01319804697927e+000,1.34994480911355e-001
3.03143313302083e+000	4.01321481279289e+000,1.35935591205913e-001
3.05251841792115e+000	4.01323181379605e+000,1.36883292670367e-001
3.07375036257606e+000	4.01324905330413e+000,1.37837632102647e-001
3.09512998708482e+000	4.01326653467978e+000,1.38798656646273e-001
3.11665831864204e+000	4.01328426133362e+000,1.39766413793217e-001
3.13833639158704e+000	4.01330223672469e+000,1.40740951386756e-001
3.16016524745355e+000	4.01332046436150e+000,1.41722317624328e-001
3.18214593501971e+000	4.01333894780231e+000,1.42710561060457e-001
3.20427951035853e+000	4.01335769065639e+000,1.43705730609767e-001
3.22656703688855e+000	4.01337669658420e+000,1.44707875549828e-001
3.24900958542498e+000	4.01339596929857e+000,1.45717045524271e-001
3.27160823423117e+000	4.01341551256527e+000,1.46733290545811e-001
3.29436406907033e+000	4.01343533020379e+000,1.47756660999280e-001
3.31727818325781e+000	4.01345542608812e+000,1.48787207644739e-001
3.34035167771352e+000	4.01347580414768e+000,1.49824981620657e-001
3.36358566101490e+000	4.01349646836795e+000,1.50870034447022e-001
3.38698124945015e+000	4.01351742279129e+000,1.51922418028547e-001
3.41053956707187e+000	4.01353867151795e+000,1.52982184657971e-001
3.43426174575106e+000	4.01356021870679e+000,1.54049387019219e-001
3.45814892523151e+000	4.01358206857604e+000,1.55124078190830e-001
3.48220225318454e+000	4.01360422540439e+000,1.56206311649201e-001
3.50642288526419e+000	4.01362669353178e+000,1.57296141272006e-001
3.53081198516267e+000	4.01364947736024e+000,1.58393621341610e-001
3.55537072466633e+000	4.01367258135481e+000,1.59498806548479e-001
3.58010028371194e+000	4.01369601004461e+000,1.60611751994725e-001
3.60500185044337e+000	4.01371976802353e+000,1.61732513197590e-001
3.63007662126869e+000	4.01374385995148e+000,1.62861146093030e-001
3.65532580091765e+000	4.01376829055509e+000,1.63997707039306e-001
3.68075060249955e+000	4.01379306462882e+000,1.65142252820619e-001
3.70635224756154e+000	4.01381818703596e+000,1.66294840650814e-001
3.73213196614728e+000	4.01384366270971e+000,1.67455528177100e-001
3.75809099685610e+000	4.01386949665402e+000,1.68624373483798e-001
3.78423058690244e+000	4.01389569394475e+000,1.69801435096176e-001
3.81055199217580e+000	4.01392225973082e+000,1.70986771984268e-001
3.83705647730111e+000	4.01394919923510e+000,1.72180443566787e-001
3.86374531569944e+000	4.01397651775570e+000,1.73382509715083e-001
3.89061978964920e+000	4.01400422066680e+000,1.74593030757064e-001
3.91768119034776e+000	4.01403231342021e+000,1.75812067481313e-001
3.94493081797349e+000	4.01406080154608e+000,1.77039681141076e-001
3.97236998174820e+000	4.01408969065439e+000,1.78275933458460e-001
4.00000000000006e+000	4.01411898643588e+000,1.79520886628525e-001
4.02782220022694e+000	4.01414869466343e+000,1.80774603323574e-001
4.05583791916018e+000	4.01417882119328e+000,1.82037146697404e-001
4.08404850282883e+000	4.01420937196607e+000,1.83308580389566e-001
4.11245530662433e+000	4.01424035300837e+000,1.84588968529817e-001
4.14105969536557e+000	4.01427177043377e+000,1.85878375742488e-001
4.16986304336455e+000	4.01430363044427e+000,1.87176867150960e-001
4.19886673449233e+000	4.01433593933157e+000,1.88484508382225e-001
4.22807216224559e+000	4.01436870347832e+000,1.89801365571400e-001
4.25748072981351e+000	4.01440192935977e+000,1.91127505366449e-001
4.28709385014524e+000	4.01443562354475e+000,1.92462994932770e-001
4.31691294601778e+000	4.01446979269743e+000,1.93807901958070e-001
4.34693945010430e+000	4.01450444357854e+000,1.95162294657042e-001
4.37717480504303e+000	4.01453958304686e+000,1.96526241776303e-001
4.40762046350651e+000	4.01457521806080e+000,1.97899812599296e-001
4.43827788827145e+000	4.01461135567975e+000,1.99283076951278e-001
4.46914855228895e+000	4.01464800306568e+000,2.00676105204384e-001
4.50023393875531e+000	4.01468516748465e+000,2.02078968282667e-001
4.53153554118327e+000	4.01472285630851e+000,2.03491737667387e-001
4.56305486347377e+000	4.01476107701625e+000,2.04914485402102e-001
4.59479341998822e+000	4.01479983719586e+000,2.06347284098106e-001
4.62675273562123e+000	4.01483914454585e+000,2.07790206939702e-001
4.65893434587390e+000	4.01487900687693e+000,2.09243327689688e-001
4.69133979692760e+000	4.01491943211385e+000,2.10706720694842e-001
4.72397064571820e+000	4.01496042829687e+000,2.12180460891507e-001
4.75682846001097e+000	4.01500200358379e+000,2.13664623811235e-001
4.78991481847580e+000	4.01504416625152e+000,2.15159285586503e-001
4.82323131076313e+000	4.01508692469803e+000,2.16664522956506e-001
4.85677953758027e+000	4.01513028744427e+000,2.18180413273056e-001
4.89056111076836e+000	4.01517426313567e+000,2.19707034506460e-001
4.92457765337975e+000	4.01521886054461e+000,2.21244465251624e-001
4.95883079975604e+000	4.01526408857183e+000,2.22792784734095e-001
4.99332219560654e+000	4.01530995624877e+000,2.24352072816264e-001
5.02805349808741e+000	4.01535647273936e+000,2.25922410003650e-001
5.06302637588121e+000	4.01540364734214e+000,2.27503877451200e-001
5.09824250927714e+000	4.01545148949226e+000,2.29096556969773e-001
5.13370359025171e+000	4.01550000876384e+000,2.30700531032635e-001
5.16941132255006e+000	4.01554921487164e+000,2.32315882782042e-001
5.20536742176783e+000	4.01559911767366e+000,2.33942696035983e-001
5.24157361543355e+000	4.01564972717325e+000,2.35581055294955e-001
5.27803164309168e+000	4.01570105352115e+000,2.37231045748796e-001
5.31474325638615e+000	4.01575310701799e+000,2.38892753283720e-001
5.35171021914455e+000	4.01580589811665e+000,2.40566264489348e-001
5.38893430746286e+000	4.01585943742438e+000,2.42251666665878e-001
5.42641730979079e+000	4.01591373570544e+000,2.43949047831378e-001
5.46416102701769e+000	4.01596880388346e+000,2.45658496729115e-001
5.50216727255908e+000	4.01602465304380e+000,2.47380102835044e-001
5.54043787244381e+000	4.01608129443634e+000,2.49113956365380e-001
5.57897466540173e+000	4.01613873947794e+000,2.50860148284300e-001
5.61777950295210e+000	4.01619699975481e+000,2.52618770311693e-001
5.65685424949249e+000	4.01625608702559e+000,2.54389914931049e-001
5.69620078238840e+000	4.01631601322376e+000,2.56173675397572e-001
5.73582099206342e+000	4.01637679046045e+000,2.57970145746177e-001
5.77571678209010e+000	4.01643843102735e+000,2.59779420799815e-001
5.81589006928136e+000	4.01650094739944e+000,2.61601596177823e-001
5.85634278378262e+000	4.01656435223791e+000,2.63436768304389e-001
5.89707686916452e+000	4.01662865839307e+000,2.65285034417154e-001
5.93809428251631e+000	4.01669387890757e+000,2.67146492576011e-001
5.97939699453987e+000	4.01676002701904e+000,2.69021241671858e-001
6.02098698964439e+000	4.01682711616354e+000,2.70909381435687e-001
6.06286626604171e+000	4.01689515997869e+000,2.72811012447648e-001
6.10503683584236e+000	4.01696417230674e+000,2.74726236146365e-001
6.14750072515217e+000	4.01703416719777e+000,2.76655154838256e-001
6.19025997416968e+000	4.01710515891336e+000,2.78597871707137e-001
6.23331663728413e+000	4.01717716192963e+000,2.80554490823891e-001
6.27667278317413e+000	4.01725019094086e+000,2.82525117156247e-001
6.32033049490715e+000	4.01732426086291e+000,2.84509856578842e-001
6.36429187003948e+000	4.01739938683693e+000,2.86508815883292e-001
6.40855902071711e+000	4.01747558423282e+000,2.88522102788448e-001
6.45313407377714e+000	4.01755286865306e+000,2.90549825950925e-001
6.49801917085002e+000	4.01763125593635e+000,2.92592094975609e-001
6.54321646846239e+000	4.01771076216160e+000,2.94649020426483e-001
6.58872813814072e+000	4.01779140365170e+000,2.96720713837529e-001
6.63455636651567e+000	4.01787319697754e+000,2.98807287723850e-001
6.68070335542710e+000	4.01795615896209e+000,3.00908855592907e-001
6.72717132202986e+000	4.01804030668444e+000,3.03025531956010e-001
6.77396249890036e+000	4.01812565748406e+000,3.05157432339950e-001
6.82107913414380e+000	4.01821222896505e+000,3.07304673298772e-001
6.86852349150218e+000	4.01830003900041e+000,3.09467372425808e-001
6.91629785046307e+000	4.01838910573667e+000,3.11645648365879e-001
6.96440450636914e+000	4.01847944759816e+000,3.13839620827673e-001
7.01284577052843e+000	4.01857108329174e+000,3.16049410596310e-001
7.06162397032539e+000	4.01866403181147e+000,3.18275139546175e-001
7.11074144933272e+000	4.01875831244336e+000,3.20516930653882e-001
7.16020056742394e+000	4.01885394477015e+000,3.22774908011512e-001
7.21000370088680e+000	4.01895094867646e+000,3.25049196840001e-001
7.26015324253745e+000	4.01904934435354e+000,3.27339923502805e-001
7.31065160183536e+000	4.01914915230462e+000,3.29647215519775e-001
7.36150120499916e+000	4.01925039335006e+000,3.31971201581232e-001
7.41270449512313e+000	4.01935308863266e+000,3.34312011562283e-001
7.46426393229462e+000	4.01945725962319e+000,3.36669776537467e-001
7.51618199371226e+000	4.01956292812578e+000,3.39044628795457e-001
7.56846117380494e+000	4.01967011628354e+000,3.41436701854172e-001
7.62110398435167e+000	4.01977884658463e+000,3.43846130476137e-001
7.67411295460229e+000	4.01988914186762e+000,3.46273050683924e-001
7.72749063139894e+000	4.02000102532776e+000,3.48717599776094e-001
7.78123957929846e+000	4.02011452052315e+000,3.51179916343278e-001
7.83536238069559e+000	4.02022965138064e+000,3.53660140284502e-001
7.88986163594705e+000	4.02034644220239e+000,3.56158412823921e-001
7.94473996349647e+000	4.02046491767220e+000,3.58674876527655e-001
8.00000000000018e+000	4.02058510286216e+000,3.61209675321145e-001
8.05564440045393e+000	4.02070702323924e+000,3.63762954506587e-001
