% Freq.	V(n004)/I(L1)
1.00000000000000e+000	3.61213184662446e+000,4.49846634940046e-002
1.00695555005672e+000	3.61213368859007e+000,4.52976352003956e-002
1.01395947979003e+000	3.61213555628246e+000,4.56127854495685e-002
1.02101212570719e+000	3.61213745006118e+000,4.59301294291981e-002
1.02811382665607e+000	3.61213937029075e+000,4.62496824333654e-002
1.03526492384138e+000	3.61214131734084e+000,4.65714598632345e-002
1.04246576084112e+000	3.61214329158627e+000,4.68954772278867e-002
1.04971668362307e+000	3.61214529340710e+000,4.72217501450608e-002
1.05701804056138e+000	3.61214732318875e+000,4.75502943418702e-002
1.06437018245336e+000	3.61214938132196e+000,4.78811256556833e-002
1.07177346253629e+000	3.61215146820300e+000,4.82142600348267e-002
1.07922823650443e+000	3.61215358423366e+000,4.85497135394081e-002
1.08673486252606e+000	3.61215572982134e+000,4.88875023420766e-002
1.09429370126074e+000	3.61215790537920e+000,4.92276427289267e-002
1.10190511587661e+000	3.61216011132609e+000,4.95701511001417e-002
1.10956947206785e+000	3.61216234808678e+000,4.99150439709283e-002
1.11728713807222e+000	3.61216461609200e+000,5.02623379723396e-002
1.12505848468881e+000	3.61216691577847e+000,5.06120498520182e-002
1.13288388529580e+000	3.61216924758903e+000,5.09641964750789e-002
1.14076371586843e+000	3.61217161197274e+000,5.13187948249746e-002
1.14869835499704e+000	3.61217400938490e+000,5.16758620042366e-002
1.15668818390529e+000	3.61217644028726e+000,5.20354152354764e-002
1.16473358646846e+000	3.61217890514795e+000,5.23974718621021e-002
1.17283494923188e+000	3.61218140444171e+000,5.27620493492574e-002
1.18099266142953e+000	3.61218393864989e+000,5.31291652846705e-002
1.18920711500272e+000	3.61218650826063e+000,5.34988373795735e-002
1.19747870461893e+000	3.61218911376883e+000,5.38710834694484e-002
1.20580782769076e+000	3.61219175567640e+000,5.42459215150876e-002
1.21419488439505e+000	3.61219443449221e+000,5.46233696034109e-002
1.22264027769207e+000	3.61219715073230e+000,5.50034459483281e-002
1.23114441334492e+000	3.61219990491991e+000,5.53861688917398e-002
1.23970769993899e+000	3.61220269758563e+000,5.57715569043545e-002
1.24833054890161e+000	3.61220552926744e+000,5.61596285867327e-002
1.25701337452183e+000	3.61220840051092e+000,5.65504026700589e-002
1.26575659397028e+000	3.61221131186925e+000,5.69438980172457e-002
1.27456062731927e+000	3.61221426390335e+000,5.73401336237534e-002
1.28342589756291e+000	3.61221725718199e+000,5.77391286185766e-002
1.29235283063750e+000	3.61222029228196e+000,5.81409022652906e-002
1.30134185544194e+000	3.61222336978808e+000,5.85454739628300e-002
1.31039340385837e+000	3.61222649029338e+000,5.89528632466751e-002
1.31950791077290e+000	3.61222965439920e+000,5.93630897896655e-002
1.32868581409652e+000	3.61223286271530e+000,5.97761734030519e-002
1.33792755478612e+000	3.61223611586000e+000,6.01921340375477e-002
1.34723357686569e+000	3.61223941446024e+000,6.06109917842196e-002
1.35660432744768e+000	3.61224275915179e+000,6.10327668755970e-002
1.36604025675440e+000	3.61224615057937e+000,6.14574796866584e-002
1.37554181813975e+000	3.61224958939658e+000,6.18851507357936e-002
1.38510946811093e+000	3.61225307626633e+000,6.23158006859466e-002
1.39474366635041e+000	3.61225661186077e+000,6.27494503455968e-002
1.40444487573800e+000	3.61226019686146e+000,6.31861206698138e-002
1.41421356237310e+000	3.61226383195958e+000,6.36258327613517e-002
1.42405019559708e+000	3.61226751785584e+000,6.40686078716088e-002
1.43395524801583e+000	3.61227125526098e+000,6.45144674019098e-002
1.44392919552250e+000	3.61227504489555e+000,6.49634329043383e-002
1.45397251732032e+000	3.61227888749029e+000,6.54155260830287e-002
1.46408569594563e+000	3.61228278378610e+000,6.58707687951335e-002
1.47426921729111e+000	3.61228673453437e+000,6.63291830520544e-002
1.48452357062906e+000	3.61229074049692e+000,6.67907910204361e-002
1.49484924863494e+000	3.61229480244638e+000,6.72556150233999e-002
1.50524674741107e+000	3.61229892116612e+000,6.77236775416046e-002
1.51571656651041e+000	3.61230309745046e+000,6.81950012143814e-002
1.52625920896057e+000	3.61230733210505e+000,6.86696088410038e-002
1.53687518128802e+000	3.61231162594663e+000,6.91475233817087e-002
1.54756499354240e+000	3.61231597980348e+000,6.96287679589390e-002
1.55832915932101e+000	3.61232039451557e+000,7.01133658585335e-002
1.56916819579351e+000	3.61232487093455e+000,7.06013405308784e-002
1.58008262372676e+000	3.61232940992405e+000,7.10927155921090e-002
1.59107296750985e+000	3.61233401235985e+000,7.15875148253546e-002
1.60213975517925e+000	3.61233867913002e+000,7.20857621819603e-002
1.61328351844426e+000	3.61234341113503e+000,7.25874817826298e-002
1.62450479271248e+000	3.61234820928806e+000,7.30926979187977e-002
1.63580411711557e+000	3.61235307451507e+000,7.36014350537324e-002
1.64718203453516e+000	3.61235800775505e+000,7.41137178239252e-002
1.65863909162889e+000	3.61236300996016e+000,7.46295710402613e-002
1.67017583885675e+000	3.61236808209587e+000,7.51490196893392e-002
1.68179283050744e+000	3.61237322514131e+000,7.56720889347770e-002
1.69349062472506e+000	3.61237844008928e+000,7.61988041184927e-002
1.70526978353592e+000	3.61238372794655e+000,7.67291907619388e-002
1.71713087287552e+000	3.61238908973403e+000,7.72632745675821e-002
1.72907446261574e+000	3.61239452648697e+000,7.78010814200948e-002
1.74110112659226e+000	3.61240003925520e+000,7.83426373877699e-002
1.75321144263208e+000	3.61240562910319e+000,7.88879687238156e-002
1.76540599258132e+000	3.61241129711046e+000,7.94371018677726e-002
1.77768536233315e+000	3.61241704437170e+000,7.99900634468640e-002
1.79005014185596e+000	3.61242287199691e+000,8.05468802773655e-002
1.80250092522167e+000	3.61242878111178e+000,8.11075793660690e-002
1.81503831063433e+000	3.61243477285775e+000,8.16721879115677e-002
1.82766290045881e+000	3.61244084839233e+000,8.22407333057993e-002
1.84037530124976e+000	3.61244700888930e+000,8.28132431353938e-002
1.85317612378076e+000	3.61245325553894e+000,8.33897451831789e-002
1.86606598307363e+000	3.61245958954828e+000,8.39702674295856e-002
1.87904549842804e+000	3.61246601214131e+000,8.45548380541341e-002
1.89211529345121e+000	3.61247252455926e+000,8.51434854369168e-002
1.90527599608789e+000	3.61247912806070e+000,8.57362381600756e-002
1.91852823865054e+000	3.61248582392209e+000,8.63331250093164e-002
1.93187265784971e+000	3.61249261343771e+000,8.69341749754252e-002
1.94530989482459e+000	3.61249949792007e+000,8.75394172558095e-002
1.95884059517387e+000	3.61250647870023e+000,8.81488812560015e-002
1.97246540898673e+000	3.61251355712784e+000,8.87625965912512e-002
1.98618499087409e+000	3.61252073457167e+000,8.93805930880657e-002
2.00000000000002e+000	3.61252801241968e+000,9.00029007858122e-002
2.01391110011345e+000	3.61253539207939e+000,9.06295499383173e-002
2.02791895958007e+000	3.61254287497819e+000,9.12605710154269e-002
2.04202425141440e+000	3.61255046256346e+000,9.18959947046826e-002
2.05622765331215e+000	3.61255815630304e+000,9.25358519129580e-002
2.07052984768277e+000	3.61256595768542e+000,9.31801737680255e-002
2.08493152168226e+000	3.61257386822004e+000,9.38289916203267e-002
2.09943336724615e+000	3.61258188943766e+000,9.44823370445790e-002
2.11403608112278e+000	3.61259002289049e+000,9.51402418415118e-002
2.12874036490674e+000	3.61259827015275e+000,9.58027380395250e-002
2.14354692507260e+000	3.61260663282079e+000,9.64698578964578e-002
2.15845647300887e+000	3.61261511251338e+000,9.71416339012760e-002
2.17346972505214e+000	3.61262371087223e+000,9.78180987758699e-002
2.18858740252150e+000	3.61263242956214e+000,9.84992854768034e-002
2.20381023175324e+000	3.61264127027132e+000,9.91852271970622e-002
2.21913894413571e+000	3.61265023471194e+000,9.98759573679096e-002
2.23457427614446e+000	3.61265932462015e+000,1.00571509660664e-001
2.25011696937764e+000	3.61266854175672e+000,1.01271917988514e-001
2.26576777059162e+000	3.61267788790719e+000,1.01977216508400e-001
2.28152743173687e+000	3.61268736488230e+000,1.02687439622840e-001
2.29739670999409e+000	3.61269697451838e+000,1.03402621981865e-001
2.31337636781060e+000	3.61270671867760e+000,1.04122798484800e-001
2.32946717293693e+000	3.61271659924852e+000,1.04848004282304e-001
2.34566989846378e+000	3.61272661814629e+000,1.05578274778227e-001
2.36198532285908e+000	3.61273677731310e+000,1.06313645631550e-001
2.37841423000546e+000	3.61274707871863e+000,1.07054152758398e-001
2.39495740923788e+000	3.61275752436033e+000,1.07799832333946e-001
2.41161565538154e+000	3.61276811626389e+000,1.08550720794483e-001
2.42838976879012e+000	3.61277885648356e+000,1.09306854839401e-001
2.44528055538416e+000	3.61278974710274e+000,1.10068271433220e-001
2.46228882668986e+000	3.61280079023415e+000,1.10835007807676e-001
2.47941539987800e+000	3.61281198802052e+000,1.11607101463730e-001
2.49666109780325e+000	3.61282334263472e+000,1.12384590173739e-001
2.51402674904368e+000	3.61283485628045e+000,1.13167511983476e-001
2.53151318794059e+000	3.61284653119254e+000,1.13955905214339e-001
2.54912125463855e+000	3.61285836963746e+000,1.14749808465458e-001
2.56685179512583e+000	3.61287037391373e+000,1.15549260615859e-001
2.58470566127501e+000	3.61288254635238e+000,1.16354300826666e-001
2.60268371088389e+000	3.61289488931754e+000,1.17164968543325e-001
2.62078680771675e+000	3.61290740520665e+000,1.17981303497793e-001
2.63901582154582e+000	3.61292009645118e+000,1.18803345710813e-001
2.65737162819305e+000	3.61293296551710e+000,1.19631135494194e-001
2.67585510957225e+000	3.61294601490515e+000,1.20464713453078e-001
2.69446715373141e+000	3.61295924715168e+000,1.21304120488281e-001
2.71320865489537e+000	3.61297266482890e+000,1.22149397798596e-001
2.73208051350882e+000	3.61298627054542e+000,1.23000586883186e-001
2.75108363627952e+000	3.61300006694692e+000,1.23857729543953e-001
2.77021893622188e+000	3.61301405671662e+000,1.24720867887920e-001
2.78948733270084e+000	3.61302824257564e+000,1.25590044329672e-001
2.80888975147603e+000	3.61304262728395e+000,1.26465301593834e-001
2.82842712474622e+000	3.61305721364046e+000,1.27346682717510e-001
2.84810039119418e+000	3.61307200448390e+000,1.28234231052761e-001
2.86791049603169e+000	3.61308700269332e+000,1.29127990269181e-001
2.88785839104502e+000	3.61310221118859e+000,1.30028004356410e-001
2.90794503464065e+000	3.61311763293108e+000,1.30934317626702e-001
2.92817139189128e+000	3.61313327092424e+000,1.31846974717542e-001
2.94853843458224e+000	3.61314912821421e+000,1.32766020594248e-001
2.96904714125813e+000	3.61316520789039e+000,1.33691500552638e-001
2.98969849726991e+000	3.61318151308609e+000,1.34623460221658e-001
3.01049349482217e+000	3.61319804697922e+000,1.35561945566156e-001
3.03143313302083e+000	3.61321481279289e+000,1.36507002889533e-001
3.05251841792115e+000	3.61323181379601e+000,1.37458678836564e-001
3.07375036257606e+000	3.61324905330409e+000,1.38417020396126e-001
3.09512998708482e+000	3.61326653467979e+000,1.39382074904033e-001
3.11665831864204e+000	3.61328426133361e+000,1.40353890045872e-001
3.13833639158704e+000	3.61330223672472e+000,1.41332513859899e-001
3.16016524745355e+000	3.61332046436148e+000,1.42317994739859e-001
3.18214593501971e+000	3.61333894780232e+000,1.43310381437988e-001
3.20427951035853e+000	3.61335769065639e+000,1.44309723067951e-001
3.22656703688855e+000	3.61337669658418e+000,1.45316069107784e-001
3.24900958542498e+000	3.61339596929857e+000,1.46329469402972e-001
3.27160823423117e+000	3.61341551256526e+000,1.47349974169457e-001
3.29436406907033e+000	3.61343533020373e+000,1.48377633996733e-001
3.31727818325781e+000	3.61345542608812e+000,1.49412499850968e-001
3.34035167771352e+000	3.61347580414770e+000,1.50454623078130e-001
3.36358566101490e+000	3.61349646836795e+000,1.51504055407166e-001
3.38698124945015e+000	3.61351742279130e+000,1.52560848953217e-001
3.41053956707187e+000	3.61353867151796e+000,1.53625056220878e-001
3.43426174575106e+000	3.61356021870677e+000,1.54696730107474e-001
3.45814892523151e+000	3.61358206857602e+000,1.55775923906343e-001
3.48220225318454e+000	3.61360422540439e+000,1.56862691310217e-001
3.50642288526419e+000	3.61362669353178e+000,1.57957086414614e-001
3.53081198516267e+000	3.61364947736023e+000,1.59059163721231e-001
3.55537072466633e+000	3.61367258135481e+000,1.60168978141442e-001
3.58010028371194e+000	3.61369601004459e+000,1.61286584999750e-001
3.60500185044337e+000	3.61371976802355e+000,1.62412040037369e-001
3.63007662126869e+000	3.61374385995150e+000,1.63545399415762e-001
3.65532580091765e+000	3.61376829055507e+000,1.64686719720268e-001
3.68075060249955e+000	3.61379306462881e+000,1.65836057963774e-001
3.70635224756154e+000	3.61381818703597e+000,1.66993471590368e-001
3.73213196614728e+000	3.61384366270971e+000,1.68159018479121e-001
3.75809099685610e+000	3.61386949665403e+000,1.69332756947842e-001
3.78423058690244e+000	3.61389569394476e+000,1.70514745756857e-001
3.81055199217580e+000	3.61392225973082e+000,1.71705044112950e-001
3.83705647730111e+000	3.61394919923511e+000,1.72903711673223e-001
3.86374531569944e+000	3.61397651775565e+000,1.74110808549027e-001
3.89061978964920e+000	3.61400422066681e+000,1.75326395310011e-001
3.91768119034776e+000	3.61403231342021e+000,1.76550532988120e-001
3.94493081797349e+000	3.61406080154608e+000,1.77783283081678e-001
3.97236998174820e+000	3.61408969065437e+000,1.79024707559569e-001
4.00000000000006e+000	3.61411898643590e+000,1.80274868865388e-001
4.02782220022694e+000	3.61414869466344e+000,1.81533829921636e-001
4.05583791916018e+000	3.61417882119327e+000,1.82801654134061e-001
4.08404850282883e+000	3.61420937196607e+000,1.84078405395969e-001
4.11245530662433e+000	3.61424035300837e+000,1.85364148092593e-001
4.14105969536557e+000	3.61427177043376e+000,1.86658947105510e-001
4.16986304336455e+000	3.61430363044427e+000,1.87962867817179e-001
4.19886673449233e+000	3.61433593933155e+000,1.89275976115413e-001
4.22807216224559e+000	3.61436870347835e+000,1.90598338398026e-001
4.25748072981351e+000	3.61440192935974e+000,1.91930021577459e-001
4.28709385014524e+000	3.61443562354475e+000,1.93271093085472e-001
4.31691294601778e+000	3.61446979269743e+000,1.94621620877918e-001
4.34693945010430e+000	3.61450444357854e+000,1.95981673439565e-001
4.37717480504303e+000	3.61453958304687e+000,1.97351319788956e-001
4.40762046350651e+000	3.61457521806082e+000,1.98730629483372e-001
4.43827788827145e+000	3.61461135567977e+000,2.00119672623787e-001
4.46914855228895e+000	3.61464800306566e+000,2.01518519859957e-001
4.50023393875531e+000	3.61468516748465e+000,2.02927242395555e-001
4.53153554118327e+000	3.61472285630852e+000,2.04345911993319e-001
4.56305486347377e+000	3.61476107701627e+000,2.05774600980328e-001
4.59479341998822e+000	3.61479983719585e+000,2.07213382253286e-001
4.62675273562123e+000	3.61483914454585e+000,2.08662329283953e-001
4.65893434587390e+000	3.61487900687693e+000,2.10121516124561e-001
4.69133979692760e+000	3.61491943211387e+000,2.11591017413336e-001
4.72397064571820e+000	3.61496042829687e+000,2.13070908380092e-001
4.75682846001097e+000	3.61500200358378e+000,2.14561264851896e-001
4.78991481847580e+000	3.61504416625149e+000,2.16062163258808e-001
4.82323131076313e+000	3.61508692469806e+000,2.17573680639661e-001
4.85677953758027e+000	3.61513028744425e+000,2.19095894647974e-001
4.89056111076836e+000	3.61517426313568e+000,2.20628883557914e-001
4.92457765337975e+000	3.61521886054463e+000,2.22172726270300e-001
4.95883079975604e+000	3.61526408857185e+000,2.23727502318750e-001
4.99332219560654e+000	3.61530995624879e+000,2.25293291875872e-001
5.02805349808741e+000	3.61535647273936e+000,2.26870175759536e-001
5.06302637588121e+000	3.61540364734213e+000,2.28458235439246e-001
5.09824250927714e+000	3.61545148949227e+000,2.30057553042577e-001
5.13370359025171e+000	3.61550000876381e+000,2.31668211361720e-001
5.16941132255006e+000	3.61554921487162e+000,2.33290293860099e-001
5.20536742176783e+000	3.61559911767366e+000,2.34923884679078e-001
5.24157361543355e+000	3.61564972717324e+000,2.36569068644762e-001
5.27803164309168e+000	3.61570105352112e+000,2.38225931274916e-001
5.31474325638615e+000	3.61575310701801e+000,2.39894558785924e-001
5.35171021914455e+000	3.61580589811664e+000,2.41575038099857e-001
5.38893430746286e+000	3.61585943742438e+000,2.43267456851740e-001
5.42641730979079e+000	3.61591373570544e+000,2.44971903396725e-001
5.46416102701769e+000	3.61596880388343e+000,2.46688466817541e-001
5.50216727255908e+000	3.61602465304381e+000,2.48417236931980e-001
5.54043787244381e+000	3.61608129443636e+000,2.50158304300452e-001
5.57897466540173e+000	3.61613873947793e+000,2.51911760233711e-001
5.61777950295210e+000	3.61619699975481e+000,2.53677696800644e-001
5.65685424949249e+000	3.61625608702559e+000,2.55456206836215e-001
5.69620078238840e+000	3.61631601322374e+000,2.57247383949452e-001
5.73582099206342e+000	3.61637679046047e+000,2.59051322531639e-001
5.77571678209010e+000	3.61643843102736e+000,2.60868117764529e-001
5.81589006928136e+000	3.61650094739945e+000,2.62697865628773e-001
5.85634278378262e+000	3.61656435223788e+000,2.64540662912369e-001
5.89707686916452e+000	3.61662865839310e+000,2.66396607219351e-001
5.93809428251631e+000	3.61669387890756e+000,2.68265796978463e-001
5.97939699453987e+000	3.61676002701903e+000,2.70148331452116e-001
6.02098698964439e+000	3.61682711616355e+000,2.72044310745324e-001
6.06286626604171e+000	3.61689515997870e+000,2.73953835814919e-001
6.10503683584236e+000	3.61696417230673e+000,2.75877008478770e-001
6.14750072515217e+000	3.61703416719778e+000,2.77813931425219e-001
6.19025997416968e+000	3.61710515891335e+000,2.79764708222652e-001
6.23331663728413e+000	3.61717716192964e+000,2.81729443329200e-001
6.27667278317413e+000	3.61725019094083e+000,2.83708242102523e-001
6.32033049490715e+000	3.61732426086291e+000,2.85701210809910e-001
6.36429187003948e+000	3.61739938683693e+000,2.87708456638344e-001
6.40855902071711e+000	3.61747558423282e+000,2.89730087704829e-001
6.45313407377714e+000	3.61755286865304e+000,2.91766213066853e-001
6.49801917085002e+000	3.61763125593635e+000,2.93816942733017e-001
6.54321646846239e+000	3.61771076216160e+000,2.95882387673779e-001
6.58872813814072e+000	3.61779140365170e+000,2.97962659832448e-001
6.63455636651567e+000	3.61787319697755e+000,3.00057872136298e-001
6.68070335542710e+000	3.61795615896210e+000,3.02168138507841e-001
6.72717132202986e+000	3.61804030668445e+000,3.04293573876300e-001
6.77396249890036e+000	3.61812565748406e+000,3.06434294189287e-001
6.82107913414380e+000	3.61821222896501e+000,3.08590416424613e-001
6.86852349150218e+000	3.61830003900041e+000,3.10762058602327e-001
6.91629785046307e+000	3.61838910573664e+000,3.12949339796904e-001
6.96440450636914e+000	3.61847944759814e+000,3.15152380149704e-001
7.01284577052843e+000	3.61857108329171e+000,3.17371300881512e-001
7.06162397032539e+000	3.61866403181147e+000,3.19606224305424e-001
7.11074144933272e+000	3.61875831244333e+000,3.21857273839808e-001
7.16020056742394e+000	3.61885394477017e+000,3.24124574021564e-001
7.21000370088680e+000	3.61895094867645e+000,3.26408250519544e-001
7.26015324253745e+000	3.61904934435354e+000,3.28708430148249e-001
7.31065160183536e+000	3.61914915230461e+000,3.31025240881691e-001
7.36150120499916e+000	3.61925039335005e+000,3.33358811867524e-001
7.41270449512313e+000	3.61935308863266e+000,3.35709273441395e-001
7.46426393229462e+000	3.61945725962320e+000,3.38076757141518e-001
7.51618199371226e+000	3.61956292812575e+000,3.40461395723522e-001
7.56846117380494e+000	3.61967011628357e+000,3.42863323175539e-001
7.62110398435167e+000	3.61977884658464e+000,3.45282674733507e-001
7.67411295460229e+000	3.61988914186760e+000,3.47719586896785e-001
7.72749063139894e+000	3.62000102532775e+000,3.50174197443986e-001
7.78123957929846e+000	3.62011452052313e+000,3.52646645449160e-001
7.83536238069559e+000	3.62022965138064e+000,3.55137071298118e-001
7.88986163594705e+000	3.62034644220238e+000,3.57645616705114e-001
7.94473996349647e+000	3.62046491767222e+000,3.60172424729897e-001
8.00000000000018e+000	3.62058510286217e+000,3.62717639794868e-001
8.05564440045393e+000	3.62070702323924e+000,3.65281407702685e-001
