% Freq.	V(n004)/I(L1)
1.00000000000000e+000	3.61238235559971e+000,4.47817501680704e-002
1.00695555005672e+000	3.61238769694515e+000,4.50932689987567e-002
1.01395947979003e+000	3.61239311288307e+000,4.54069553942433e-002
1.02101212570719e+000	3.61239860445554e+000,4.57228244474921e-002
1.02811382665607e+000	3.61240417271929e+000,4.60408913568534e-002
1.03526492384138e+000	3.61240981874577e+000,4.63611714266947e-002
1.04246576084112e+000	3.61241554362141e+000,4.66836800681817e-002
1.04971668362307e+000	3.61242134844785e+000,4.70084328000851e-002
1.05701804056138e+000	3.61242723434215e+000,4.73354452494591e-002
1.06437018245336e+000	3.61243320243698e+000,4.76647331524412e-002
1.07177346253629e+000	3.61243925388080e+000,4.79963123549983e-002
1.07922823650443e+000	3.61244538983821e+000,4.83301988137636e-002
1.08673486252606e+000	3.61245161149005e+000,4.86664085966995e-002
1.09429370126074e+000	3.61245792003367e+000,4.90049578839935e-002
1.10190511587661e+000	3.61246431668322e+000,4.93458629687570e-002
1.10956947206785e+000	3.61247080266975e+000,4.96891402578914e-002
1.11728713807222e+000	3.61247737924158e+000,5.00348062728505e-002
1.12505848468881e+000	3.61248404766451e+000,5.03828776504574e-002
1.13288388529580e+000	3.61249080922198e+000,5.07333711437243e-002
1.14076371586843e+000	3.61249766521542e+000,5.10863036226205e-002
1.14869835499704e+000	3.61250461696446e+000,5.14416920749744e-002
1.15668818390529e+000	3.61251166580723e+000,5.17995536072614e-002
1.16473358646846e+000	3.61251881310049e+000,5.21599054454069e-002
1.17283494923188e+000	3.61252606022005e+000,5.25227649356947e-002
1.18099266142953e+000	3.61253340856094e+000,5.28881495455876e-002
1.18920711500272e+000	3.61254085953771e+000,5.32560768645561e-002
1.19747870461893e+000	3.61254841458472e+000,5.36265646049593e-002
1.20580782769076e+000	3.61255607515636e+000,5.39996306029519e-002
1.21419488439505e+000	3.61256384272741e+000,5.43752928192432e-002
1.22264027769207e+000	3.61257171879324e+000,5.47535693400971e-002
1.23114441334492e+000	3.61257970487018e+000,5.51344783781640e-002
1.23970769993899e+000	3.61258780249578e+000,5.55180382733765e-002
1.24833054890161e+000	3.61259601322908e+000,5.59042674938159e-002
1.25701337452183e+000	3.61260433865090e+000,5.62931846366889e-002
1.26575659397028e+000	3.61261278036430e+000,5.66848084291825e-002
1.27456062731927e+000	3.61262133999468e+000,5.70791577293836e-002
1.28342589756291e+000	3.61263001919019e+000,5.74762515272319e-002
1.29235283063750e+000	3.61263881962209e+000,5.78761089454509e-002
1.30134185544194e+000	3.61264774298496e+000,5.82787492404100e-002
1.31039340385837e+000	3.61265679099721e+000,5.86841918032135e-002
1.31950791077290e+000	3.61266596540123e+000,5.90924561605190e-002
1.32868581409652e+000	3.61267526796375e+000,5.95035619755108e-002
1.33792755478612e+000	3.61268470047634e+000,5.99175290489816e-002
1.34723357686569e+000	3.61269426475561e+000,6.03343773201972e-002
1.35660432744768e+000	3.61270396264355e+000,6.07541268678479e-002
1.36604025675440e+000	3.61271379600799e+000,6.11767979111459e-002
1.37554181813975e+000	3.61272376674288e+000,6.16024108107155e-002
1.38510946811093e+000	3.61273387676874e+000,6.20309860697212e-002
1.39474366635041e+000	3.61274412803290e+000,6.24625443346868e-002
1.40444487573800e+000	3.61275452251004e+000,6.28971063967222e-002
1.41421356237310e+000	3.61276506220243e+000,6.33346931923884e-002
1.42405019559708e+000	3.61277574914038e+000,6.37753258048043e-002
1.43395524801583e+000	3.61278658538270e+000,6.42190254646543e-002
1.44392919552250e+000	3.61279757301696e+000,6.46658135512859e-002
1.45397251732032e+000	3.61280871415996e+000,6.51157115936278e-002
1.46408569594563e+000	3.61282001095823e+000,6.55687412714632e-002
1.47426921729111e+000	3.61283146558827e+000,6.60249244162956e-002
1.48452357062906e+000	3.61284308025713e+000,6.64842830125778e-002
1.49484924863494e+000	3.61285485720271e+000,6.69468391986814e-002
1.50524674741107e+000	3.61286679869437e+000,6.74126152680914e-002
1.51571656651041e+000	3.61287890703315e+000,6.78816336704186e-002
1.52625920896057e+000	3.61289118455240e+000,6.83539170125159e-002
1.53687518128802e+000	3.61290363361807e+000,6.88294880597186e-002
1.54756499354240e+000	3.61291625662943e+000,6.93083697368415e-002
1.55832915932101e+000	3.61292905601915e+000,6.97905851293000e-002
1.56916819579351e+000	3.61294203425416e+000,7.02761574843485e-002
1.58008262372676e+000	3.61295519383586e+000,7.07651102122096e-002
1.59107296750985e+000	3.61296853730080e+000,7.12574668871654e-002
1.60213975517925e+000	3.61298206722094e+000,7.17532512487664e-002
1.61328351844426e+000	3.61299578620444e+000,7.22524872030856e-002
1.62450479271248e+000	3.61300969689593e+000,7.27551988237249e-002
1.63580411711557e+000	3.61302380197708e+000,7.32614103531688e-002
1.64718203453516e+000	3.61303810416725e+000,7.37711462039807e-002
1.65863909162889e+000	3.61305260622387e+000,7.42844309598979e-002
1.67017583885675e+000	3.61306731094299e+000,7.48012893771269e-002
1.68179283050744e+000	3.61308222115988e+000,7.53217463856002e-002
1.69349062472506e+000	3.61309733974967e+000,7.58458270902119e-002
1.70526978353592e+000	3.61311266962763e+000,7.63735567719869e-002
1.71713087287552e+000	3.61312821375006e+000,7.69049608893970e-002
1.72907446261574e+000	3.61314397511460e+000,7.74400650796590e-002
1.74110112659226e+000	3.61315995676108e+000,7.79788951599943e-002
1.75321144263208e+000	3.61317616177176e+000,7.85214771288129e-002
1.76540599258132e+000	3.61319259327232e+000,7.90678371671877e-002
1.77768536233315e+000	3.61320925443221e+000,7.96180016400333e-002
1.79005014185596e+000	3.61322614846536e+000,8.01719970974688e-002
1.80250092522167e+000	3.61324327863071e+000,8.07298502760852e-002
1.81503831063433e+000	3.61326064823304e+000,8.12915881004162e-002
1.82766290045881e+000	3.61327826062346e+000,8.18572376841414e-002
1.84037530124976e+000	3.61329611920006e+000,8.24268263315207e-002
1.85317612378076e+000	3.61331422740866e+000,8.30003815387113e-002
1.86606598307363e+000	3.61333258874346e+000,8.35779309952172e-002
1.87904549842804e+000	3.61335120674765e+000,8.41595025852136e-002
1.89211529345121e+000	3.61337008501417e+000,8.47451243889392e-002
1.90527599608789e+000	3.61338922718645e+000,8.53348246841940e-002
1.91852823865054e+000	3.61340863695895e+000,8.59286319476152e-002
1.93187265784971e+000	3.61342831807816e+000,8.65265748562738e-002
1.94530989482459e+000	3.61344827434304e+000,8.71286822889449e-002
1.95884059517387e+000	3.61346850960593e+000,8.77349833277053e-002
1.97246540898673e+000	3.61348902777334e+000,8.83455072593345e-002
1.98618499087409e+000	3.61350983280651e+000,8.89602835767311e-002
2.00000000000002e+000	3.61353092872242e+000,8.95793419805209e-002
2.01391110011345e+000	3.61355231959453e+000,9.02027123804954e-002
2.02791895958007e+000	3.61357400955332e+000,9.08304248970659e-002
2.04202425141440e+000	3.61359600278753e+000,9.14625098628838e-002
2.05622765331215e+000	3.61361830354455e+000,9.20989978242945e-002
2.07052984768277e+000	3.61364091613162e+000,9.27399195429124e-002
2.08493152168226e+000	3.61366384491645e+000,9.33853059972173e-002
2.09943336724615e+000	3.61368709432805e+000,9.40351883840279e-002
2.11403608112278e+000	3.61371066885781e+000,9.46895981201580e-002
2.12874036490674e+000	3.61373457306022e+000,9.53485668439945e-002
2.14354692507260e+000	3.61375881155374e+000,9.60121264170828e-002
2.15845647300887e+000	3.61378338902183e+000,9.66803089257691e-002
2.17346972505214e+000	3.61380831021379e+000,9.73531466827816e-002
2.18858740252150e+000	3.61383357994567e+000,9.80306722289606e-002
2.20381023175324e+000	3.61385920310128e+000,9.87129183348141e-002
2.21913894413571e+000	3.61388518463313e+000,9.93999180022708e-002
2.23457427614446e+000	3.61391152956342e+000,1.00091704466288e-001
2.25011696937764e+000	3.61393824298492e+000,1.00788311196622e-001
2.26576777059162e+000	3.61396533006214e+000,1.01489771899474e-001
2.28152743173687e+000	3.61399279603221e+000,1.02196120519237e-001
2.29739670999409e+000	3.61402064620600e+000,1.02907391240232e-001
2.31337636781060e+000	3.61404888596907e+000,1.03623618488454e-001
2.32946717293693e+000	3.61407752078287e+000,1.04344836933336e-001
2.34566989846378e+000	3.61410655618568e+000,1.05071081489524e-001
2.36198532285908e+000	3.61413599779374e+000,1.05802387318652e-001
2.37841423000546e+000	3.61416585130239e+000,1.06538789831188e-001
2.39495740923788e+000	3.61419612248726e+000,1.07280324688229e-001
2.41161565538154e+000	3.61422681720521e+000,1.08027027803304e-001
2.42838976879012e+000	3.61425794139560e+000,1.08778935344275e-001
2.44528055538416e+000	3.61428950108154e+000,1.09536083735183e-001
2.46228882668986e+000	3.61432150237097e+000,1.10298509658109e-001
2.47941539987800e+000	3.61435395145791e+000,1.11066250055080e-001
2.49666109780325e+000	3.61438685462365e+000,1.11839342129974e-001
2.51402674904368e+000	3.61442021823801e+000,1.12617823350455e-001
2.53151318794059e+000	3.61445404876066e+000,1.13401731449898e-001
2.54912125463855e+000	3.61448835274229e+000,1.14191104429373e-001
2.56685179512583e+000	3.61452313682600e+000,1.14985980559556e-001
2.58470566127501e+000	3.61455840774853e+000,1.15786398382767e-001
2.60268371088389e+000	3.61459417234169e+000,1.16592396714982e-001
2.62078680771675e+000	3.61463043753363e+000,1.17404014647779e-001
2.63901582154582e+000	3.61466721035031e+000,1.18221291550480e-001
2.65737162819305e+000	3.61470449791670e+000,1.19044267072111e-001
2.67585510957225e+000	3.61474230745850e+000,1.19872981143533e-001
2.69446715373141e+000	3.61478064630329e+000,1.20707473979498e-001
2.71320865489537e+000	3.61481952188214e+000,1.21547786080703e-001
2.73208051350882e+000	3.61485894173095e+000,1.22393958236040e-001
2.75108363627952e+000	3.61489891349219e+000,1.23246031524640e-001
2.77021893622188e+000	3.61493944491617e+000,1.24104047318009e-001
2.78948733270084e+000	3.61498054386276e+000,1.24968047282298e-001
2.80888975147603e+000	3.61502221830276e+000,1.25838073380394e-001
2.82842712474622e+000	3.61506447631976e+000,1.26714167874178e-001
2.84810039119418e+000	3.61510732611145e+000,1.27596373326768e-001
2.86791049603169e+000	3.61515077599153e+000,1.28484732604739e-001
2.88785839104502e+000	3.61519483439116e+000,1.29379288880386e-001
2.90794503464065e+000	3.61523950986070e+000,1.30280085634011e-001
2.92817139189128e+000	3.61528481107158e+000,1.31187166656272e-001
2.94853843458224e+000	3.61533074681771e+000,1.32100576050409e-001
2.96904714125813e+000	3.61537732601757e+000,1.33020358234718e-001
2.98969849726991e+000	3.61542455771571e+000,1.33946557944774e-001
3.01049349482217e+000	3.61547245108482e+000,1.34879220235917e-001
3.03143313302083e+000	3.61552101542738e+000,1.35818390485616e-001
3.05251841792115e+000	3.61557026017761e+000,1.36764114395892e-001
3.07375036257606e+000	3.61562019490330e+000,1.37716437995770e-001
3.09512998708482e+000	3.61567082930780e+000,1.38675407643718e-001
3.11665831864204e+000	3.61572217323193e+000,1.39641070030178e-001
3.13833639158704e+000	3.61577423665590e+000,1.40613472180022e-001
3.16016524745355e+000	3.61582702970142e+000,1.41592661455143e-001
3.18214593501971e+000	3.61588056263375e+000,1.42578685556954e-001
3.20427951035853e+000	3.61593484586358e+000,1.43571592528944e-001
3.22656703688855e+000	3.61598988994934e+000,1.44571430759372e-001
3.24900958542498e+000	3.61604570559917e+000,1.45578248983740e-001
3.27160823423117e+000	3.61610230367317e+000,1.46592096287565e-001
3.29436406907033e+000	3.61615969518562e+000,1.47613022108970e-001
3.31727818325781e+000	3.61621789130702e+000,1.48641076241393e-001
3.34035167771352e+000	3.61627690336662e+000,1.49676308836294e-001
3.36358566101490e+000	3.61633674285440e+000,1.50718770405851e-001
3.38698124945015e+000	3.61639742142375e+000,1.51768511825805e-001
3.41053956707187e+000	3.61645895089339e+000,1.52825584338157e-001
3.43426174575106e+000	3.61652134325024e+000,1.53890039554017e-001
3.45814892523151e+000	3.61658461065146e+000,1.54961929456430e-001
3.48220225318454e+000	3.61664876542714e+000,1.56041306403216e-001
3.50642288526419e+000	3.61671382008266e+000,1.57128223129870e-001
3.53081198516267e+000	3.61677978730140e+000,1.58222732752474e-001
3.55537072466633e+000	3.61684667994713e+000,1.59324888770612e-001
3.58010028371194e+000	3.61691451106679e+000,1.60434745070344e-001
3.60500185044337e+000	3.61698329389300e+000,1.61552355927189e-001
3.63007662126869e+000	3.61705304184682e+000,1.62677776009123e-001
3.65532580091765e+000	3.61712376854059e+000,1.63811060379666e-001
3.68075060249955e+000	3.61719548778052e+000,1.64952264500903e-001
3.70635224756154e+000	3.61726821356956e+000,1.66101444236584e-001
3.73213196614728e+000	3.61734196011041e+000,1.67258655855289e-001
3.75809099685610e+000	3.61741674180821e+000,1.68423956033544e-001
3.78423058690244e+000	3.61749257327369e+000,1.69597401859011e-001
3.81055199217580e+000	3.61756946932594e+000,1.70779050833704e-001
3.83705647730111e+000	3.61764744499564e+000,1.71968960877232e-001
3.86374531569944e+000	3.61772651552811e+000,1.73167190330078e-001
3.89061978964920e+000	3.61780669638633e+000,1.74373797956875e-001
3.91768119034776e+000	3.61788800325424e+000,1.75588842949746e-001
3.94493081797349e+000	3.61797045203991e+000,1.76812384931701e-001
3.97236998174820e+000	3.61805405887880e+000,1.78044483959973e-001
4.00000000000006e+000	3.61813884013718e+000,1.79285200529511e-001
4.02782220022694e+000	3.61822481241536e+000,1.80534595576372e-001
4.05583791916018e+000	3.61831199255122e+000,1.81792730481256e-001
4.08404850282883e+000	3.61840039762370e+000,1.83059667073020e-001
4.11245530662433e+000	3.61849004495628e+000,1.84335467632245e-001
4.14105969536557e+000	3.61858095212059e+000,1.85620194894787e-001
4.16986304336455e+000	3.61867313694006e+000,1.86913912055459e-001
4.19886673449233e+000	3.61876661749361e+000,1.88216682771654e-001
4.22807216224559e+000	3.61886141211934e+000,1.89528571167030e-001
4.25748072981351e+000	3.61895753941852e+000,1.90849641835295e-001
4.28709385014524e+000	3.61905501825929e+000,1.92179959843921e-001
4.31691294601778e+000	3.61915386778063e+000,1.93519590737964e-001
4.34693945010430e+000	3.61925410739641e+000,1.94868600543910e-001
4.37717480504303e+000	3.61935575679944e+000,1.96227055773536e-001
4.40762046350651e+000	3.61945883596554e+000,1.97595023427874e-001
4.43827788827145e+000	3.61956336515765e+000,1.98972571001085e-001
4.46914855228895e+000	3.61966936493027e+000,2.00359766484505e-001
4.50023393875531e+000	3.61977685613360e+000,2.01756678370675e-001
4.53153554118327e+000	3.61988585991806e+000,2.03163375657402e-001
4.56305486347377e+000	3.61999639773860e+000,2.04579927851868e-001
4.59479341998822e+000	3.62010849135927e+000,2.06006404974768e-001
4.62675273562123e+000	3.62022216285787e+000,2.07442877564559e-001
4.65893434587390e+000	3.62033743463051e+000,2.08889416681614e-001
4.69133979692760e+000	3.62045432939638e+000,2.10346093912586e-001
4.72397064571820e+000	3.62057287020260e+000,2.11812981374654e-001
4.75682846001097e+000	3.62069308042901e+000,2.13290151719934e-001
4.78991481847580e+000	3.62081498379322e+000,2.14777678139863e-001
4.82323131076313e+000	3.62093860435562e+000,2.16275634369686e-001
4.85677953758027e+000	3.62106396652447e+000,2.17784094692918e-001
4.89056111076836e+000	3.62119109506106e+000,2.19303133945888e-001
4.92457765337975e+000	3.62132001508509e+000,2.20832827522368e-001
4.95883079975604e+000	3.62145075208001e+000,2.22373251378168e-001
4.99332219560654e+000	3.62158333189838e+000,2.23924482035860e-001
5.02805349808741e+000	3.62171778076746e+000,2.25486596589474e-001
5.06302637588121e+000	3.62185412529490e+000,2.27059672709313e-001
5.09824250927714e+000	3.62199239247431e+000,2.28643788646758e-001
5.13370359025171e+000	3.62213260969122e+000,2.30239023239188e-001
5.16941132255006e+000	3.62227480472882e+000,2.31845455914873e-001
5.20536742176783e+000	3.62241900577413e+000,2.33463166697991e-001
5.24157361543355e+000	3.62256524142379e+000,2.35092236213637e-001
5.27803164309168e+000	3.62271354069078e+000,2.36732745692977e-001
5.31474325638615e+000	3.62286393300996e+000,2.38384776978281e-001
5.35171021914455e+000	3.62301644824508e+000,2.40048412528235e-001
5.38893430746286e+000	3.62317111669509e+000,2.41723735423150e-001
5.42641730979079e+000	3.62332796910059e+000,2.43410829370271e-001
5.46416102701769e+000	3.62348703665059e+000,2.45109778709120e-001
5.50216727255908e+000	3.62364835098951e+000,2.46820668416989e-001
5.54043787244381e+000	3.62381194422383e+000,2.48543584114388e-001
5.57897466540173e+000	3.62397784892926e+000,2.50278612070550e-001
5.61777950295210e+000	3.62414609815788e+000,2.52025839209080e-001
5.65685424949249e+000	3.62431672544539e+000,2.53785353113658e-001
5.69620078238840e+000	3.62448976481852e+000,2.55557242033639e-001
5.73582099206342e+000	3.62466525080252e+000,2.57341594889998e-001
5.77571678209010e+000	3.62484321842872e+000,2.59138501281077e-001
5.81589006928136e+000	3.62502370324223e+000,2.60948051488480e-001
5.85634278378262e+000	3.62520674131027e+000,2.62770336483199e-001
5.89707686916452e+000	3.62539236922950e+000,2.64605447931491e-001
5.93809428251631e+000	3.62558062413470e+000,2.66453478201107e-001
5.97939699453987e+000	3.62577154370672e+000,2.68314520367423e-001
6.02098698964439e+000	3.62596516618118e+000,2.70188668219727e-001
6.06286626604171e+000	3.62616153035674e+000,2.72076016267514e-001
6.10503683584236e+000	3.62636067560405e+000,2.73976659746886e-001
6.14750072515217e+000	3.62656264187431e+000,2.75890694627021e-001
6.19025997416968e+000	3.62676746970862e+000,2.77818217616697e-001
6.23331663728413e+000	3.62697520024688e+000,2.79759326170973e-001
6.27667278317413e+000	3.62718587523707e+000,2.81714118497760e-001
6.32033049490715e+000	3.62739953704483e+000,2.83682693564676e-001
6.36429187003948e+000	3.62761622866303e+000,2.85665151105860e-001
6.40855902071711e+000	3.62783599372154e+000,2.87661591628880e-001
6.45313407377714e+000	3.62805887649712e+000,2.89672116421767e-001
6.49801917085002e+000	3.62828492192368e+000,2.91696827560027e-001
6.54321646846239e+000	3.62851417560234e+000,2.93735827913900e-001
6.58872813814072e+000	3.62874668381209e+000,2.95789221155511e-001
6.63455636651567e+000	3.62898249352036e+000,2.97857111766256e-001
6.68070335542710e+000	3.62922165239371e+000,2.99939605044196e-001
6.72717132202986e+000	3.62946420880921e+000,3.02036807111570e-001
6.77396249890036e+000	3.62971021186507e+000,3.04148824922359e-001
6.82107913414380e+000	3.62995971139253e+000,3.06275766269983e-001
6.86852349150218e+000	3.63021275796721e+000,3.08417739795093e-001
6.91629785046307e+000	3.63046940292095e+000,3.10574854993353e-001
6.96440450636914e+000	3.63072969835372e+000,3.12747222223480e-001
7.01284577052843e+000	3.63099369714602e+000,3.14934952715277e-001
7.06162397032539e+000	3.63126145297102e+000,3.17138158577696e-001
7.11074144933272e+000	3.63153302030738e+000,3.19356952807168e-001
7.16020056742394e+000	3.63180845445208e+000,3.21591449295925e-001
7.21000370088680e+000	3.63208781153342e+000,3.23841762840384e-001
7.26015324253745e+000	3.63237114852437e+000,3.26108009149761e-001
7.31065160183536e+000	3.63265852325612e+000,3.28390304854675e-001
7.36150120499916e+000	3.63294999443185e+000,3.30688767515873e-001
7.41270449512313e+000	3.63324562164077e+000,3.33003515633151e-001
7.46426393229462e+000	3.63354546537229e+000,3.35334668654222e-001
7.51618199371226e+000	3.63384958703072e+000,3.37682346983880e-001
7.56846117380494e+000	3.63415804894996e+000,3.40046671993116e-001
7.62110398435167e+000	3.63447091440850e+000,3.42427766028419e-001
7.67411295460229e+000	3.63478824764492e+000,3.44825752421215e-001
7.72749063139894e+000	3.63511011387318e+000,3.47240755497341e-001
7.78123957929846e+000	3.63543657929890e+000,3.49672900586719e-001
7.83536238069559e+000	3.63576771113517e+000,3.52122314033075e-001
7.88986163594705e+000	3.63610357761920e+000,3.54589123203857e-001
7.94473996349647e+000	3.63644424802904e+000,3.57073456500207e-001
8.00000000000018e+000	3.63678979270063e+000,3.59575443367101e-001
8.05564440045393e+000	3.63714028304515e+000,3.62095214303573e-001
